#Energy_(eV) f1 f2
4.805124023743404905e+03 -3.191638414757191011e+00 5.077317022577483296e-01
4.810084973479588371e+03 -3.217778935418697639e+00 5.067571927276798283e-01
4.815045923215773655e+03 -3.247776113343477267e+00 5.057854538228296892e-01
4.820006872951957121e+03 -3.279015955521836556e+00 5.048164747185852619e-01
4.824967822688142405e+03 -3.311105673869414900e+00 5.038503027330542006e-01
4.829928772424325871e+03 -3.344260615193800135e+00 5.028868961368442303e-01
4.834889722160511155e+03 -3.378986481214782955e+00 5.019262170123379718e-01
4.840098719383504431e+03 -3.416706567658314597e+00 5.009204277628549473e-01
4.845059669119689715e+03 -3.453988721418768115e+00 4.999663949290840681e-01
4.850020618855873181e+03 -3.492722323585673028e+00 4.990150987199255539e-01
4.854981568592058466e+03 -3.533133368377937344e+00 4.980664850085991247e-01
4.859942518328241931e+03 -3.575522273783073857e+00 4.971206067462390354e-01
4.864903468064427216e+03 -3.619792669549445119e+00 4.961777180162290080e-01
4.870112465287420491e+03 -3.668486260273533084e+00 4.951905374467437948e-01
4.875073415023603957e+03 -3.717241099533130200e+00 4.942530715659281260e-01
4.880034364759789241e+03 -3.768512702648976198e+00 4.933184589393088681e-01
4.884995314495972707e+03 -3.822558911050603303e+00 4.923868238486610593e-01
4.889956264232157992e+03 -3.879983280026606973e+00 4.914577970790535710e-01
4.894917213968341457e+03 -3.940889503690597540e+00 4.905313685960876469e-01
4.899878163704526742e+03 -4.005567626365437839e+00 4.896077537993819284e-01
4.905087160927520017e+03 -4.078298556834777600e+00 4.886409458114465698e-01
4.910048110663705302e+03 -4.152912543666811729e+00 4.877228077593874778e-01
4.915009060399888767e+03 -4.233369710743042802e+00 4.868072269858362278e-01
4.919970010136074052e+03 -4.320487983456785308e+00 4.858942171581542291e-01
4.924930959872257517e+03 -4.415970423197744132e+00 4.849837557912565211e-01
4.929891909608442802e+03 -4.521060832140455510e+00 4.840758224136444410e-01
4.935100906831436077e+03 -4.644427943538659953e+00 4.831252025621937118e-01
4.940061856567619543e+03 -4.776695942759888958e+00 4.822233193416601837e-01
4.945022806303804828e+03 -4.928286126208615059e+00 4.813241342766880759e-01
4.949983756039988293e+03 -5.104858768803397950e+00 4.804274362133959531e-01
4.954944705776173578e+03 -5.316991330530384197e+00 4.795332157002503704e-01
4.955192753262983388e+03 -5.328840471487223951e+00 4.794885695413713123e-01
4.955440800749791379e+03 -5.340963462125198014e+00 4.794439295516728095e-01
4.955688848236601189e+03 -5.353058284815208623e+00 4.793993006067894247e-01
4.955936895723410998e+03 -5.365152828590054490e+00 4.793546905210640530e-01
4.956184943210218989e+03 -5.377426081046010609e+00 4.793100865992336312e-01
4.956432990697028799e+03 -5.390066236533589183e+00 4.792654888401235436e-01
4.956681038183838609e+03 -5.402834116902820227e+00 4.792208972425673896e-01
4.956929085670646600e+03 -5.415607557370351266e+00 4.791763118053952164e-01
4.957177133157456410e+03 -5.428404559227404391e+00 4.791317325274324079e-01
4.957425180644266220e+03 -5.441591341281267091e+00 4.790871594075072348e-01
4.957673228131074211e+03 -5.455090411152767160e+00 4.790425924444506878e-01
4.957921275617884021e+03 -5.468575378514635155e+00 4.789980316370986979e-01
4.958169323104693831e+03 -5.482025991114509722e+00 4.789534769842787032e-01
4.958417370591501822e+03 -5.495872107734460776e+00 4.789089284848199179e-01
4.958665418078311632e+03 -5.510132650631187623e+00 4.788643861375528887e-01
4.958913465565121442e+03 -5.524384161262882564e+00 4.788198499413141018e-01
4.959161513051929433e+03 -5.538607584136704176e+00 4.787753198949289968e-01
4.959409560538739242e+03 -5.553246522713102706e+00 4.787307959972354476e-01
4.959657608025549052e+03 -5.568335385739357157e+00 4.786862782470590605e-01
4.959905655512357043e+03 -5.583422901358453316e+00 4.786417666432379314e-01
4.960153702999166853e+03 -5.598532760527711538e+00 4.785972611846062152e-01
4.960401750485976663e+03 -5.614125068013542830e+00 4.785527618699922381e-01
4.960649797972784654e+03 -5.630167884533070932e+00 4.785082686982313760e-01
4.960897845459594464e+03 -5.646161951540485724e+00 4.784637816681570066e-01
4.961145892946404274e+03 -5.662387892068156958e+00 4.784193007786053942e-01
4.961393940433212265e+03 -5.679145746921639315e+00 4.783748260284048093e-01
4.961641987920022075e+03 -5.696243665077096452e+00 4.783303574163966232e-01
4.961890035406831885e+03 -5.713311769473456536e+00 4.782858949414108829e-01
4.962138082893641695e+03 -5.730946258291688800e+00 4.782414386022867392e-01
4.962386130380449686e+03 -5.749405244667636694e+00 4.781969883978569591e-01
4.962634177867259496e+03 -5.767892300167818398e+00 4.785758660181773649e-01
4.962882225354069305e+03 -5.786454281661066901e+00 4.790367787034416347e-01
4.963130272840877296e+03 -5.805750842440199122e+00 4.794977119320886771e-01
4.963378320327687106e+03 -5.824962798367189443e+00 4.804135063906307401e-01
4.963626367814496916e+03 -5.843882580708069874e+00 4.808462625469110963e-01
4.964122462788114717e+03 -5.884432949479311503e+00 4.809059494030947235e-01
4.964370510274924527e+03 -5.905397623001404028e+00 4.809482266630281111e-01
4.964618557761732518e+03 -5.927675528902133451e+00 4.809904995894197510e-01
4.964866605248542328e+03 -5.950893301735149521e+00 4.817971443301946599e-01
4.965114652735352138e+03 -5.973956915703967141e+00 4.832448778168139114e-01
4.965362700222160129e+03 -5.997544365288081991e+00 4.846931889409805683e-01
4.965610747708969939e+03 -6.021978297162445593e+00 4.861420782148097586e-01
4.965858795195779749e+03 -6.046751539353125260e+00 4.883836866743034300e-01
4.966106842682587740e+03 -6.072189601553100502e+00 4.906268280338926258e-01
4.966354890169397549e+03 -6.098013178192976724e+00 4.930101619560843806e-01
4.966602937656207359e+03 -6.124926217269251794e+00 4.953952461451027189e-01
4.966850985143015350e+03 -6.153625596470455150e+00 4.981461079018576488e-01
4.967099032629825160e+03 -6.183411318423232217e+00 5.017638086210832737e-01
4.967347080116634970e+03 -6.215408222347936551e+00 5.067926583658145523e-01
4.967595127603442961e+03 -6.248487212034511629e+00 5.140777587039868646e-01
4.967843175090252771e+03 -6.284658702686752640e+00 5.241589353298954368e-01
4.968091222577062581e+03 -6.320220348309813829e+00 5.434388077953292706e-01
4.968339270063870572e+03 -6.347298546429537502e+00 5.676131931560999266e-01
4.968587317550680382e+03 -6.364428456860533601e+00 5.919932280769717448e-01
4.968835365037490192e+03 -6.368987650984625049e+00 6.071217752209537855e-01
4.969083412524298183e+03 -6.377315933920876923e+00 6.012251650040105755e-01
4.969331460011107993e+03 -6.400937415747058878e+00 5.893353130658909311e-01
4.969579507497917803e+03 -6.441064847390080672e+00 5.774964501488069057e-01
4.969827554984725793e+03 -6.494052093067138820e+00 5.802543644834249337e-01
4.970075602471535603e+03 -6.548934349482244954e+00 5.995818865785469409e-01
4.970323649958345413e+03 -6.595367613812853413e+00 6.362425778983749058e-01
4.970571697445153404e+03 -6.625569030707200824e+00 6.812670646803203889e-01
4.970819744931963214e+03 -6.631756326656495837e+00 7.270009144971372184e-01
4.971067792418773024e+03 -6.617749367378776171e+00 7.478319271763547160e-01
4.971315839905582834e+03 -6.614185472031658186e+00 7.374253058219075729e-01
4.971563887392390825e+03 -6.632556641953668120e+00 7.199289732116916918e-01
4.971811934879200635e+03 -6.668564783287641795e+00 7.025394467821881594e-01
4.972059982366010445e+03 -6.718465707940159959e+00 6.956673925246279477e-01
4.972308029852818436e+03 -6.774858948044253815e+00 6.996488200456952855e-01
4.972556077339628246e+03 -6.834184905424797840e+00 7.154141715167605664e-01
4.972804124826438056e+03 -6.894982778680809332e+00 7.424684489729262982e-01
4.973052172313246047e+03 -6.951896590432964373e+00 7.857237455675440962e-01
4.973300219800055856e+03 -6.994448559962848755e+00 8.407251648778998332e-01
4.973548267286865666e+03 -7.021763022975713753e+00 8.967619985199684063e-01
4.973796314773673657e+03 -7.035861148098973672e+00 9.516585434429840618e-01
4.974044362260483467e+03 -7.035124872318521128e+00 9.979269880011033544e-01
4.974292409747293277e+03 -7.030020998775517782e+00 1.027396019366994873e+00
4.974540457234101268e+03 -7.028933080504263131e+00 1.046929651923504512e+00
4.974788504720911078e+03 -7.032188955272919983e+00 1.060186071182054768e+00
4.975036552207720888e+03 -7.039625586168355653e+00 1.069574416522286686e+00
4.975284599694528879e+03 -7.051712649999184457e+00 1.076221197787834427e+00
4.975532647181338689e+03 -7.067697391869447898e+00 1.082882078697555039e+00
4.975780694668148499e+03 -7.085388307168596356e+00 1.090595139177518380e+00
4.976028742154956490e+03 -7.100735707720137846e+00 1.098326820104869261e+00
4.976276789641766300e+03 -7.114701548827446764e+00 1.100602310988278321e+00
4.976524837128576110e+03 -7.128688432461806279e+00 1.096712476424425153e+00
4.976772884615384100e+03 -7.147400576277559203e+00 1.082403849669323570e+00
4.977020932102193910e+03 -7.176046550103825084e+00 1.061397699410327577e+00
4.977268979589003720e+03 -7.217046751067711874e+00 1.036067241768283465e+00
4.977517027075811711e+03 -7.274271480238692966e+00 1.010947492471762743e+00
4.977765074562621521e+03 -7.344691784173127402e+00 9.962327217050276351e-01
4.978013122049431331e+03 -7.420775114107597048e+00 9.915376288103121549e-01
4.978261169536239322e+03 -7.497922447527711753e+00 9.964272642103315647e-01
4.978509217023049132e+03 -7.574074468916004221e+00 1.004079709869495129e+00
4.978757264509858942e+03 -7.653007395351236752e+00 1.011750738645740277e+00
4.979005311996666933e+03 -7.738580153966649000e+00 1.019614438279446311e+00
4.979253359483476743e+03 -7.832140884769732914e+00 1.030200382153539262e+00
4.979501406970286553e+03 -7.936396073132462092e+00 1.043361145299450676e+00
4.979749454457094544e+03 -8.054059196788248443e+00 1.065620723701861117e+00
4.979997501943904354e+03 -8.180528869113761203e+00 1.100716448668945358e+00
4.980245549430714163e+03 -8.317144699254674478e+00 1.148194316793309966e+00
4.980493596917523973e+03 -8.459126308572480823e+00 1.214232411908963361e+00
4.980741644404331964e+03 -8.610177397430115676e+00 1.293367860181196871e+00
4.980989691891141774e+03 -8.767122370198807246e+00 1.401238448454115826e+00
4.981237739377951584e+03 -8.922140221110486991e+00 1.532266208620598480e+00
4.981485786864759575e+03 -9.072365984247321435e+00 1.693351429278854736e+00
4.981733834351569385e+03 -9.210428389368313873e+00 1.879661469286912023e+00
4.981981881838379195e+03 -9.332171297908669061e+00 2.092525097755687735e+00
4.982229929325187186e+03 -9.437765584593606150e+00 2.325041075995848416e+00
4.982477976811996996e+03 -9.525247166843415769e+00 2.588131678024973681e+00
4.982726024298806806e+03 -9.582965980778835657e+00 2.880039270701904908e+00
4.982974071785614797e+03 -9.601721827262169384e+00 3.203384797594402755e+00
4.983222119272424607e+03 -9.559856919523626928e+00 3.554149238364896490e+00
4.983470166759234417e+03 -9.439631189429052327e+00 3.910976968894499528e+00
4.983718214246042407e+03 -9.226453281965243391e+00 4.246624961489700034e+00
4.983966261732852217e+03 -8.923230035363753032e+00 4.505117085668721266e+00
4.984214309219662027e+03 -8.597485946981928251e+00 4.646878213240573707e+00
4.984462356706470018e+03 -8.279250698503920702e+00 4.708851000031095246e+00
4.984710404193279828e+03 -8.012525135775620200e+00 4.667762127946709860e+00
4.984958451680089638e+03 -7.828699362047769839e+00 4.611183907191027664e+00
4.985206499166897629e+03 -7.685162827650001027e+00 4.551692894539685064e+00
4.985454546653707439e+03 -7.590565072307694727e+00 4.492929928867861022e+00
4.985702594140517249e+03 -7.523621307889942322e+00 4.468966362495781830e+00
4.985950641627325240e+03 -7.456561970935483785e+00 4.461532957049926473e+00
4.986198689114135050e+03 -7.391234542228878546e+00 4.464888392797568883e+00
4.986446736600944860e+03 -7.317311873736780825e+00 4.476709364196715057e+00
4.986694784087752851e+03 -7.238731654399073179e+00 4.480514551734574802e+00
4.986942831574562661e+03 -7.157775019693444207e+00 4.484322794169153248e+00
4.987190879061372470e+03 -7.068535877654075428e+00 4.473853611937887109e+00
4.987438926548180461e+03 -6.987766430252856154e+00 4.440300989247667474e+00
4.987686974034990271e+03 -6.929987279191689886e+00 4.393205522091025550e+00
4.987935021521800081e+03 -6.898511320640822397e+00 4.346575478146103677e+00
4.988183069008608072e+03 -6.887511714250731387e+00 4.311112916412630724e+00
4.988431116495417882e+03 -6.892271189574047163e+00 4.291419716966045961e+00
4.988679163982227692e+03 -6.902572752206005191e+00 4.295063846442294775e+00
4.988927211469035683e+03 -6.907515300193315610e+00 4.317150274484662376e+00
4.989175258955845493e+03 -6.899557357893200127e+00 4.352383039095643724e+00
4.989423306442655303e+03 -6.879477043698992489e+00 4.388975954868790552e+00
4.989671353929463294e+03 -6.848436596192117420e+00 4.425854114003653805e+00
4.989919401416273104e+03 -6.812235119109191217e+00 4.454849668174061250e+00
4.990167448903082914e+03 -6.768160287427306798e+00 4.481882601169741243e+00
4.990415496389892724e+03 -6.726451366989869562e+00 4.488224086906908994e+00
4.990663543876700714e+03 -6.699613322499307522e+00 4.493339406846963868e+00
4.990911591363510524e+03 -6.689228784519558602e+00 4.499696120957108469e+00
4.991159638850320334e+03 -6.683585304857312615e+00 4.530028570314891923e+00
4.991407686337128325e+03 -6.670243778729897599e+00 4.566809580852984496e+00
4.991655733823938135e+03 -6.649745364712323692e+00 4.615368572742782227e+00
4.991903781310747945e+03 -6.616219741494473006e+00 4.664419754465099821e+00
4.992151828797555936e+03 -6.574245139041328123e+00 4.711817598592118017e+00
4.992399876284365746e+03 -6.525659134285338503e+00 4.754492170020640174e+00
4.992647923771175556e+03 -6.474174308696668767e+00 4.795296580740440184e+00
4.992895971257983547e+03 -6.408079993289245380e+00 4.834087686300976294e+00
4.993144018744793357e+03 -6.342075830628007616e+00 4.848237023700361803e+00
4.993392066231603167e+03 -6.288199873400595941e+00 4.861126478785446459e+00
4.993640113718411158e+03 -6.239415451771742838e+00 4.871001204436276488e+00
4.993888161205220968e+03 -6.196720253461696970e+00 4.883950021892151661e+00
4.994136208692030777e+03 -6.158580692718481409e+00 4.901404589636372044e+00
4.994384256178838768e+03 -6.117959560974122191e+00 4.929576493731850029e+00
4.994632303665648578e+03 -6.067896940433928243e+00 4.960335918584999781e+00
4.994880351152458388e+03 -6.010521601245269352e+00 4.991285442990444743e+00
4.995128398639266379e+03 -5.940816786702923125e+00 5.019466295355294427e+00
4.995376446126076189e+03 -5.862365142613418456e+00 5.033215769465000378e+00
4.995872541099693990e+03 -5.721350537866394248e+00 5.031545566695132976e+00
4.996120588586503800e+03 -5.653161530864467821e+00 5.019866245795896909e+00
4.996368636073313610e+03 -5.593302992338784918e+00 5.004084415263752916e+00
4.996616683560121601e+03 -5.537041195557910633e+00 4.987053075467682284e+00
4.996864731046931411e+03 -5.485896025338838022e+00 4.965357168551206790e+00
4.997112778533741221e+03 -5.442519416108979158e+00 4.942143238327060928e+00
4.997360826020549212e+03 -5.407862333973159075e+00 4.920641324555845131e+00
4.997608873507359021e+03 -5.380577187197245870e+00 4.906618638854729042e+00
4.997856920994168831e+03 -5.351104989549484436e+00 4.900861990045171979e+00
4.998104968480976822e+03 -5.326703273603815347e+00 4.896800351276638708e+00
4.998353015967786632e+03 -5.297170426836898649e+00 4.914360825074293615e+00
4.998601063454596442e+03 -5.244693776713819311e+00 4.931983417666880420e+00
4.998849110941404433e+03 -5.177002987421236213e+00 4.936835214797258509e+00
4.999097158428214243e+03 -5.112537597624512209e+00 4.920895751554671627e+00
4.999345205915024053e+03 -5.056839448130513226e+00 4.904886278282304168e+00
4.999593253401833863e+03 -4.996341024769114902e+00 4.887611726251710920e+00
4.999841300888641854e+03 -4.928874949465168243e+00 4.857509491157552262e+00
5.000089348375451664e+03 -4.879796032204138712e+00 4.804962250217679198e+00
5.000585443349069465e+03 -4.810185646673134308e+00 4.728868371304788099e+00
5.001081538322689084e+03 -4.754992942652058296e+00 4.644038879067880821e+00
5.001577633296306885e+03 -4.725325128055241741e+00 4.560671707434305944e+00
5.002073728269924686e+03 -4.716408380187789184e+00 4.496146794196170582e+00
5.002569823243544306e+03 -4.715836917313379395e+00 4.450651946500771672e+00
5.003065918217162107e+03 -4.714542944717551087e+00 4.425272479559371419e+00
5.003562013190779908e+03 -4.709406954131449830e+00 4.408086992578883923e+00
5.004306155651207519e+03 -4.683346755955112073e+00 4.409137950997740418e+00
5.004802250624827138e+03 -4.650389693027351612e+00 4.410534315788693149e+00
5.005298345598444939e+03 -4.604502600386881639e+00 4.409496419686837143e+00
5.005794440572062740e+03 -4.552826916300359628e+00 4.391880462810247465e+00
5.006538583032490351e+03 -4.479407314722748445e+00 4.352361863403017672e+00
5.007034678006109971e+03 -4.441286587678666464e+00 4.306099766504774884e+00
5.007778820466537582e+03 -4.396328835947268310e+00 4.258587911974805351e+00
5.008274915440155382e+03 -4.372412134116705040e+00 4.213247049000826472e+00
5.008771010413775002e+03 -4.360746259643769385e+00 4.179225529502256897e+00
5.009515152874202613e+03 -4.336572591283429645e+00 4.146409303366134225e+00
5.010011247847820414e+03 -4.320048463563150420e+00 4.116468778889998958e+00
5.010755390308248025e+03 -4.297346971049804232e+00 4.086406587137889623e+00
5.011499532768675635e+03 -4.266436643692394171e+00 4.056000006968306870e+00
5.011995627742293436e+03 -4.248132711587031984e+00 4.026110315953702390e+00
5.012739770202721047e+03 -4.220110600257324762e+00 3.996107862266985666e+00
5.013235865176340667e+03 -4.200297433373600064e+00 3.962498628355894947e+00
5.013980007636768278e+03 -4.178426820641095496e+00 3.920480300979057198e+00
5.014724150097195889e+03 -4.158174369987923669e+00 3.870980616994067702e+00
5.015468292557623499e+03 -4.142947159389347433e+00 3.818214718380438910e+00
5.015964387531241300e+03 -4.147160691545926703e+00 3.766369464851472948e+00
5.016708529991668911e+03 -4.170481115684293805e+00 3.725032005552720626e+00
5.017452672452096522e+03 -4.195730130363012123e+00 3.691777591446976814e+00
5.018196814912524133e+03 -4.217082788563343954e+00 3.681525129014165287e+00
5.018940957372951743e+03 -4.227482978257864232e+00 3.672795540535471304e+00
5.019685099833379354e+03 -4.231816864426931168e+00 3.665435739542898474e+00
5.020429242293806965e+03 -4.230730577623170063e+00 3.658089310989282694e+00
5.021173384754234576e+03 -4.222625282961240956e+00 3.646650414801903217e+00
5.021917527214662186e+03 -4.217579168523449162e+00 3.620323996683486811e+00
5.022661669675089797e+03 -4.222669595635550444e+00 3.593260663305168912e+00
5.023405812135517408e+03 -4.236892224803328055e+00 3.566368837193297558e+00
5.024149954595945019e+03 -4.261781341740314311e+00 3.546598899606245858e+00
5.024894097056372630e+03 -4.288030804216266922e+00 3.542562965836315136e+00
5.025638239516800240e+03 -4.311155477045153894e+00 3.543991948572850603e+00
5.026382381977227851e+03 -4.328697434459353843e+00 3.555612454083846075e+00
5.027374571924465272e+03 -4.341903476770212933e+00 3.569630206226570124e+00
5.028118714384892883e+03 -4.346597893275396807e+00 3.583966717834262461e+00
5.028862856845320493e+03 -4.343940468441755520e+00 3.595256343573846713e+00
5.029855046792557914e+03 -4.336642161456881972e+00 3.601385093070724075e+00
5.030599189252985525e+03 -4.332496275787817375e+00 3.598318011653793391e+00
5.031343331713413136e+03 -4.332912477414443408e+00 3.592968002685647200e+00
5.032335521660650556e+03 -4.339553780710860842e+00 3.585378568256787357e+00
5.033079664121078167e+03 -4.349945203886842471e+00 3.578076043990946697e+00
5.034071854068313769e+03 -4.373825198374367673e+00 3.570948827376475343e+00
5.034815996528741380e+03 -4.399587397114641973e+00 3.573045225566102268e+00
